#Best-fit ATMO: \chi^2/N_obs=3.24
#[M/H]=+1.0, C/O=0.35, Tint=400, redis=0.25, haze=01, cld=5.0$
#$Wavelength[micron] Transit depth [ppm]
2.003600284348780736e-01 2.155444315449498026e+04
2.010290101658793183e-01 2.155055220891164936e+04
2.017002255587537207e-01 2.154658787949497855e+04
2.023736820714707729e-01 2.154326308482831882e+04
2.030493871869013534e-01 2.153934803541164729e+04
2.037273484129010215e-01 2.153547030816164988e+04
2.044075732823931735e-01 2.153212431282831312e+04
2.050900693534529196e-01 2.152827453466164661e+04
2.057748442093910168e-01 2.152443896782831507e+04
2.064619054588380520e-01 2.152110514882831558e+04
2.071512607358291236e-01 2.151731317666164614e+04
2.078429176998886629e-01 2.151344785849497930e+04
2.085368840361153109e-01 2.151016391849498177e+04
2.092331674552676546e-01 2.150632321641164890e+04
2.099317756938495205e-01 2.150251831716164816e+04
2.106327165141962665e-01 2.149926998749498307e+04
2.113359977045608518e-01 2.149538582391164891e+04
2.120416270792004898e-01 2.149181949216164867e+04
2.127496124784632459e-01 2.148845507682831521e+04
2.134599617688754947e-01 2.148474998941164813e+04
2.141726828432289897e-01 2.148107292982831495e+04
2.148877836206687930e-01 2.147787711749498339e+04
2.156052720467812045e-01 2.147419618291164807e+04
2.163251560936819418e-01 2.147042350116164744e+04
2.170474437601049300e-01 2.146726626749497882e+04
2.177721430714908979e-01 2.146361036941164639e+04
2.184992620800768615e-01 2.146001855449498180e+04
2.192288088649853028e-01 2.145680805816164866e+04
2.199607915323141538e-01 2.145322329966164762e+04
2.206952182152267239e-01 2.144958104749497943e+04
2.214320970740421557e-01 2.144651221182831432e+04
2.221714362963260747e-01 2.144282597841164534e+04
2.229132440969815998e-01 2.143925252682831342e+04
2.236575287183404925e-01 2.143614831782831607e+04
2.244042984302548338e-01 2.143268128541164697e+04
2.251535615301888671e-01 2.142920542649498020e+04
2.259053263433113412e-01 2.142609816682831661e+04
2.266596012225878531e-01 2.142258999216165103e+04
2.274163945488736349e-01 2.141906559149498207e+04
2.281757147310067291e-01 2.141608256816165158e+04
2.289375702059015805e-01 2.141257844016164745e+04
2.297019694386424893e-01 2.140910749582831704e+04
2.304689209225778412e-01 2.140615747649498007e+04
2.312384331794144765e-01 2.140277538691164591e+04
2.320105147593123363e-01 2.139930306349497914e+04
2.327851742409794977e-01 2.139645649649497864e+04
2.335624202317674314e-01 2.139302049241164787e+04
2.343422613677666466e-01 2.138972345982831393e+04
2.351247063139027815e-01 2.138682809082831591e+04
2.359097637640326650e-01 2.138350249566164712e+04
2.366974424410411282e-01 2.138021198216164703e+04
2.374877510969377326e-01 2.137730332549498053e+04
2.382806985129541921e-01 2.137403620866164783e+04
2.390762934996418509e-01 2.137077255016164781e+04
2.398745448969695215e-01 2.136797057582831621e+04
2.406754615744218784e-01 2.136476430666164742e+04
2.414790524310977404e-01 2.136145641216164950e+04
2.422853263958092418e-01 2.135876798282831805e+04
2.430942924271808914e-01 2.135822596441164933e+04
2.439059595137491043e-01 2.136014978449498449e+04
2.447203366740620945e-01 2.135841427716164981e+04
2.455374329567801550e-01 2.135053601491164954e+04
2.463572574407760785e-01 2.134915163016164661e+04
2.471798192352361034e-01 2.134083142849498108e+04
2.480051274797611116e-01 2.134253500066164270e+04
2.488331913444681853e-01 2.134151749082831520e+04
2.496640200300924151e-01 2.133202369616165015e+04
2.504976227680894008e-01 2.132898573316165130e+04
2.513340088207374201e-01 2.133459742082831144e+04
2.521731874812407348e-01 2.132338835482831564e+04
2.530151680738325082e-01 2.132038641766164801e+04
2.538599599538786666e-01 2.131746583149498474e+04
2.547075725079817610e-01 2.132491805482831478e+04
2.555580151540852163e-01 2.131198116241164462e+04
2.564112973415779706e-01 2.130906395482831431e+04
2.572674285513996129e-01 2.130663856482831397e+04
2.581264182961454656e-01 2.130372867791164754e+04
2.589882761201727224e-01 2.130097503982831404e+04
2.598530115997058632e-01 2.131049873216164633e+04
2.607206343429435691e-01 2.129562051041164887e+04
2.615911539901654148e-01 2.129280255149498043e+04
2.624645802138386719e-01 2.129049908582831631e+04
2.633409227187263335e-01 2.128762791741164983e+04
2.642201912419941401e-01 2.128498258182831705e+04
2.651023955533196585e-01 2.128250876082831383e+04
2.659875454550001961e-01 2.127991067016165107e+04
2.668756507820619905e-01 2.127724469216164653e+04
2.677667214023693454e-01 2.127599291616164919e+04
2.686607672167345418e-01 2.128368851766164880e+04
2.695577981590274730e-01 2.126968617782831643e+04
2.704578241962863339e-01 2.126742689582831372e+04
2.713608553288281988e-01 2.126485215466165027e+04
2.722669015903601553e-01 2.126218663716164519e+04
2.731759730480908810e-01 2.126004008316164982e+04
2.740880798028424437e-01 2.125748905066164662e+04
2.750032319891624333e-01 2.125497805116164818e+04
2.759214397754368164e-01 2.125277981249498043e+04
2.768427133640025128e-01 2.125031792866165051e+04
2.777670629912613043e-01 2.124786524216164617e+04
2.786944989277930773e-01 2.124576301049498215e+04
2.796250314784701763e-01 2.124330916541164333e+04
2.805586709825719227e-01 2.124090376649497921e+04
2.814954278138993571e-01 2.123886250082831612e+04
2.824353123808906463e-01 2.123652540291165133e+04
2.833783351267367134e-01 2.123413885116164602e+04
2.843245065294970342e-01 2.123222635482831538e+04
2.852738371022165431e-01 2.124868341591164790e+04
2.862263373930419852e-01 2.122768717582831596e+04
2.871820179853392663e-01 2.122583778949498446e+04
2.881408894978112478e-01 2.122408095116164623e+04
2.891029625846152640e-01 2.122188197116164883e+04
2.900682479354820820e-01 2.121976104016164754e+04
2.910367562758342519e-01 2.121758904391164833e+04
2.920084983669054557e-01 2.121584360449498126e+04
2.929834850058600781e-01 2.121426333549498304e+04
2.939617270259130555e-01 2.121188227341164747e+04
2.949432352964502790e-01 2.120855727082831436e+04
2.959280207231496096e-01 2.120670334916164938e+04
2.969160942481016696e-01 2.120612328691165021e+04
2.979074668499317458e-01 2.120261867249498391e+04
2.989021495439214693e-01 2.120084244316164768e+04
2.999001533821315513e-01 2.120131996541164699e+04
3.009014894535242957e-01 2.119674732916164794e+04
3.019061688840869451e-01 2.119505354049498055e+04
3.029142028369553596e-01 2.119298536066164525e+04
3.039256025125378624e-01 2.119409671182831516e+04
3.049403791486398063e-01 2.118935372882831507e+04
3.059585440205884743e-01 2.118744194716164930e+04
3.069801084413583681e-01 2.118552901282831590e+04
3.080050837616968296e-01 2.118389756116165154e+04
3.090334813702501071e-01 2.118196424716164984e+04
3.100653126936899762e-01 2.118584331216164719e+04
3.111005891968408599e-01 2.117854122149498289e+04
3.121393223828069496e-01 2.117670954116165012e+04
3.131815237931000473e-01 2.117488255582831698e+04
3.142272050077681844e-01 2.117332627916164711e+04
3.152763776455236866e-01 2.117186133991164752e+04
3.163290533638726809e-01 2.116990597282831368e+04
3.173852438592444924e-01 2.116824364149498069e+04
3.184449608671218179e-01 2.116650586141164604e+04
3.195082161621706218e-01 2.116479435116165041e+04
3.205750215583715312e-01 2.116334988182831512e+04
3.216453889091507312e-01 2.116751823041164607e+04
3.227193301075118592e-01 2.116077523749498141e+04
3.237968570861679551e-01 2.115871758382831831e+04
3.248779818176743550e-01 2.115698826241164716e+04
3.259627163145614182e-01 2.115536582549498053e+04
3.270510726294681425e-01 2.115404678316164791e+04
3.281430628552760576e-01 2.115268505916164941e+04
3.292386991252435613e-01 2.115237402182831647e+04
3.303379936131408678e-01 2.120823414682831572e+04
3.314409585333850661e-01 2.114993773266164499e+04
3.325476061411759554e-01 2.114669116116164878e+04
3.336579487326323257e-01 2.114520055882831366e+04
3.347719986449282370e-01 2.114449032916164651e+04
3.358897682564304654e-01 2.114207449382831328e+04
3.370112699868359485e-01 2.114082800916164342e+04
3.381365162973095639e-01 2.113931763641164798e+04
3.392655196906227411e-01 2.113788852182831397e+04
3.403982927112926271e-01 2.113669532649498069e+04
3.415348479457209763e-01 2.113524335366164814e+04
3.426751980223343708e-01 2.113385679782831357e+04
3.438193556117244976e-01 2.113270905749497979e+04
3.449673334267886471e-01 2.114058159541164787e+04
3.461191442228714887e-01 2.112998128582831487e+04
3.472748007979060691e-01 2.112878135616164582e+04
3.484343159925568090e-01 2.112746779916164814e+04
3.495977026903616669e-01 2.112612569482831532e+04
3.507649738178754140e-01 2.112501903716165180e+04
3.519361423448131854e-01 2.112375216666164488e+04
3.531112212841948650e-01 2.112244652049498109e+04
3.542902236924893034e-01 2.112139337316164892e+04
3.554731626697597568e-01 2.112015387791164540e+04
3.566600513598090494e-01 2.111891405682831100e+04
3.578509029503259553e-01 2.111786693749497863e+04
3.590457306730315268e-01 2.111804860641164851e+04
3.602445478038263094e-01 2.111547801749498103e+04
3.614473676629376131e-01 2.111452808516165169e+04
3.626542036150675608e-01 2.111329592691164726e+04
3.638650690695419132e-01 2.111212438216164810e+04
3.650799774804586173e-01 2.111113095782831442e+04
3.662989423468374084e-01 2.111001219141164620e+04
3.675219772127701345e-01 2.110887344782831133e+04
3.687490956675706921e-01 2.110793722616164814e+04
3.699803113459265158e-01 2.110685481141164928e+04
3.712156379280497909e-01 2.110576255649498125e+04
3.724550891398296093e-01 2.110485724316164851e+04
3.736986787529843479e-01 2.110379966691164736e+04
3.749464205852146570e-01 2.110273921316164706e+04
3.761983285003572264e-01 2.110186791316164818e+04
3.774544164085387177e-01 2.110081666366164791e+04
3.787146982663300854e-01 2.109982534116164970e+04
3.799791880769021191e-01 2.109896984382831579e+04
3.812478998901805971e-01 2.109796489016164924e+04
3.825208478030025505e-01 2.109698165449498265e+04
3.837980459592730265e-01 2.109614142782831550e+04
3.850795085501219628e-01 2.109518363241164843e+04
3.863652498140622837e-01 2.109423173882831907e+04
3.876552840371476627e-01 2.109352837249498043e+04
3.889496255531314506e-01 2.109252621341164922e+04
3.902482887436260484e-01 2.109160770349498125e+04
3.915512880382624461e-01 2.109082598549497925e+04
3.928586379148509833e-01 2.108994000341164792e+04
3.941703528995416650e-01 2.108903646082831256e+04
3.954864475669859214e-01 2.108829227849498056e+04
3.968069365404983673e-01 2.108745591191164931e+04
3.981318344922195607e-01 2.108659407882831511e+04
3.994611561432787061e-01 2.108587087849498130e+04
4.007949162639574681e-01 2.108505125966164633e+04
4.021331296738537842e-01 2.108424684782831537e+04
4.034758112420469556e-01 2.108366103782831487e+04
4.048229758872624595e-01 2.110102727391164808e+04
4.061746385780379831e-01 2.108197386849498071e+04
4.075308143328895127e-01 2.108122486749498057e+04
4.088915182204784782e-01 2.108042861666164754e+04
4.102567653597788966e-01 2.107965070482831652e+04
4.116265709202455714e-01 2.107900697516164655e+04
4.130009501219826240e-01 2.107826552916164655e+04
4.143799182359124700e-01 2.107752218449498105e+04
4.157634905839455719e-01 2.107690067582831398e+04
4.171516825391506922e-01 2.107620645816165052e+04
4.185445095259258119e-01 2.107546907416164686e+04
4.199419870201693272e-01 2.107705142816164880e+04
4.213441305494520228e-01 2.107526899091164887e+04
4.227509556931897672e-01 2.107344709482831604e+04
4.241624780828164853e-01 2.107286123049498201e+04
4.255787134019577422e-01 2.107218984541165264e+04
4.269996773866053807e-01 2.107151808949498081e+04
4.284253858252917713e-01 2.107093714016164813e+04
4.298558545592660596e-01 2.107028276066164835e+04
4.312910994826693045e-01 2.106963368582831390e+04
4.327311365427115586e-01 2.106908907316164914e+04
4.341759817398491705e-01 2.106846192441164749e+04
4.356256511279621435e-01 2.106784067116164806e+04
4.370801608145329364e-01 2.106731796682831555e+04
4.385395269608252100e-01 2.106672353216164993e+04
4.400037657820633497e-01 2.106613633282831506e+04
4.414728935476128213e-01 2.106563512282831653e+04
4.429469265811607492e-01 2.106542961416164690e+04
4.444258812608975484e-01 2.106454267182831609e+04
4.459097740196985571e-01 2.106405199516164794e+04
4.473986213453068350e-01 2.106346102466164666e+04
4.488924397805165167e-01 2.106287985849498000e+04
4.503912459233563315e-01 2.106239568382831567e+04
4.518950564272740111e-01 2.106184576366164765e+04
4.534038880013216422e-01 2.106130632349497682e+04
4.549177574103410726e-01 2.106084176749498147e+04
4.564366814751502077e-01 2.106050204141165159e+04
4.579606770727300269e-01 2.105978198082831295e+04
4.594897611364119339e-01 2.105943738016164934e+04
4.610239506560660505e-01 2.105883214816164764e+04
4.625632626782899548e-01 2.105833646949498143e+04
4.641077143065980848e-01 2.105791312149498117e+04
4.656573227016117533e-01 2.105743611991165017e+04
4.672121050812498844e-01 2.105698458382831450e+04
4.687720787209200823e-01 2.105657592316164664e+04
4.703372609537111448e-01 2.105617665366164874e+04
4.719076691705849647e-01 2.105564969716164705e+04
4.734833208205702082e-01 2.105528607282831581e+04
4.750642334109561049e-01 2.105480763216164632e+04
4.766504245074868473e-01 2.105436166749498079e+04
4.782419117345568793e-01 2.105397237416164717e+04
4.798387127754068504e-01 2.105353279716164980e+04
4.814408453723197368e-01 2.105310554416164450e+04
4.830483273268182942e-01 2.105274417249498219e+04
4.846611764998627336e-01 2.105241699316164886e+04
4.862794108120492287e-01 2.105199621416164882e+04
4.879030482438089789e-01 2.105168190182831677e+04
4.895321068356079941e-01 2.105125211341164686e+04
4.911666046881476566e-01 2.105089193916165459e+04
4.928065599625654492e-01 2.105058216349497889e+04
4.944519908806374042e-01 2.105026273466164639e+04
4.961029157249800536e-01 2.104991902349498196e+04
4.977593528392537658e-01 2.104969224349497745e+04
4.994213206283664719e-01 2.104944678241165093e+04
5.010888375586781684e-01 2.104935945782831186e+04
5.027619221582063647e-01 2.105029199982831415e+04
5.044405930168314178e-01 2.105195918066164450e+04
5.061248687865036455e-01 2.105056747149498187e+04
5.078147681814502157e-01 2.105027429049498096e+04
5.095103099783833134e-01 2.105030755891164881e+04
5.112115130167083077e-01 2.104895585316164943e+04
5.129183961987340279e-01 2.104809310182831177e+04
5.146309784898817075e-01 2.104772410016164940e+04
5.163492789188963705e-01 2.104746896949498114e+04
5.180733165780579963e-01 2.104728854682831661e+04
5.198031106233937937e-01 2.104711146841164737e+04
5.215386802748909201e-01 2.104691683382831252e+04
5.232800448167101992e-01 2.104684660916165012e+04
5.250272235974002832e-01 2.104675717941164476e+04
5.267802360301128139e-01 2.104665891549498338e+04
5.285391015928176950e-01 2.104659587116164766e+04
5.303038398285199184e-01 2.104657672191164966e+04
5.320744703454765023e-01 2.104656405949498003e+04
5.338510128174147606e-01 2.104651578682831678e+04
5.356334869837500179e-01 2.104654756416164673e+04
5.374219126498058774e-01 2.104663772949498161e+04
5.392163096870339345e-01 2.104669313716164834e+04
5.410166980332342668e-01 2.104737619091165107e+04
5.428230976927777007e-01 2.104711463149498013e+04
5.446355287368269682e-01 2.104721941316164884e+04
5.464540113035609714e-01 2.104745812466165080e+04
5.482785655983976048e-01 2.104745077916164519e+04
5.501092118942185749e-01 2.104771644682831175e+04
5.519459705315948872e-01 2.104788968616164493e+04
5.537888619190125539e-01 2.104828327949498271e+04
5.556379065330994127e-01 2.104847239982831525e+04
5.574931249188526117e-01 2.104897754166164668e+04
5.593545376898672039e-01 2.104937323149498116e+04
5.612221655285645205e-01 2.105004377816164924e+04
5.630960291864228751e-01 2.105065009766164803e+04
5.649761494842071574e-01 2.105149902882831157e+04
5.668625473122012037e-01 2.105235947882831533e+04
5.687552436304389447e-01 2.105609834691164724e+04
5.706542594689378856e-01 2.105567290182831493e+04
5.725596159279326969e-01 2.105761449549498138e+04
5.744713341781093607e-01 2.105963695066164655e+04
5.763894354608409820e-01 2.106133226116164951e+04
5.783139410884230447e-01 2.106426420882831371e+04
5.802448724443109995e-01 2.106813529416164965e+04
5.821822509833570747e-01 2.107330652716164695e+04
5.841260982320494177e-01 2.108098641482831590e+04
5.860764357887506826e-01 2.109265960941164667e+04
5.880332853239385038e-01 2.120241788516164888e+04
5.899966685804458599e-01 2.140412930882831643e+04
5.919666073737026579e-01 2.112014275166164953e+04
5.939431235919788721e-01 2.109135030549497969e+04
5.959262391966265726e-01 2.108288087416164490e+04
5.979159762223247299e-01 2.107843347216164693e+04
5.999123567773241295e-01 2.106964876782831561e+04
6.019154030436925096e-01 2.106325174349498047e+04
6.039251372775613635e-01 2.105739082641165078e+04
6.059415818093728534e-01 2.105150577749497825e+04
6.079647590441286109e-01 2.104847576049498093e+04
6.099946914616383165e-01 2.104633212741164607e+04
6.120314016167689442e-01 2.104476759549497729e+04
6.140749121396964494e-01 2.104342539149498043e+04
6.161252457361561241e-01 2.104226535191164658e+04
6.181824251876959497e-01 2.104113550049498372e+04
6.202464733519286177e-01 2.104035884149498088e+04
6.223174131627864369e-01 2.103954162166164679e+04
6.243952676307756855e-01 2.103894851582831325e+04
6.264800598432324064e-01 2.103955183616164504e+04
6.285718129645787577e-01 2.103929964166164791e+04
6.306705502365805849e-01 2.103705038649498238e+04
6.327762949786059909e-01 2.103785224482831472e+04
6.348890705878833529e-01 2.103636868841164687e+04
6.370089005397627790e-01 2.103652317549498184e+04
6.391358083879756791e-01 2.103573709816164774e+04
6.412698177648972209e-01 2.103556667141164871e+04
6.434109523818083431e-01 2.103704665716164891e+04
6.455592360291598775e-01 2.104391793216164660e+04
6.477146925768365593e-01 2.105267939816165017e+04
6.498773459744220382e-01 2.104054550082831338e+04
6.520472202514651094e-01 2.104847231716164606e+04
6.542243395177471665e-01 2.104150040491165055e+04
6.564087279635493211e-01 2.104527296249498249e+04
6.586004098599216317e-01 2.104307241316164800e+04
6.607994095589531103e-01 2.103921507591164846e+04
6.630057514940415064e-01 2.103604253416164647e+04
6.652194601801650897e-01 2.103439034249498218e+04
6.674405602141556537e-01 2.103182007241164683e+04
6.696690762749708536e-01 2.103157832549498198e+04
6.719050331239690976e-01 2.103760042949498529e+04
6.741484556051842159e-01 2.103111435716164851e+04
6.763993686456022392e-01 2.103088327816164747e+04
6.786577972554372895e-01 2.103077248816164865e+04
6.809237665284103569e-01 2.103066797291164767e+04
6.831973016420277434e-01 2.103041302682831520e+04
6.854784278578609502e-01 2.103026796016164735e+04
6.877671705218270093e-01 2.103020106716164810e+04
6.900635550644708127e-01 2.103464067449498179e+04
6.923676070012469985e-01 2.106925674549498217e+04
6.946793519328037236e-01 2.105894574891164666e+04
6.969988155452671030e-01 2.103989122849498381e+04
6.993260236105267591e-01 2.104778669482831538e+04
7.016610019865218151e-01 2.105437802241164900e+04
7.040037766175284428e-01 2.105045717182831504e+04
7.063543735344484098e-01 2.105271892516164735e+04
7.087128188550977370e-01 2.105301442141165171e+04
7.110791387844970224e-01 2.105127277316165055e+04
7.134533596151630963e-01 2.105880193549498290e+04
7.158355077274007883e-01 2.111658856191164887e+04
7.182256095895956927e-01 2.113198205282831259e+04
7.206236917585091550e-01 2.111349671982831569e+04
7.230297808795727033e-01 2.109218685191164695e+04
7.254439036871839219e-01 2.111200013716164904e+04
7.278660870050042142e-01 2.108912190749498041e+04
7.302963577462563416e-01 2.111255739916164748e+04
7.327347429140235180e-01 2.109896974016165041e+04
7.351812696015493920e-01 2.108212755549497888e+04
7.376359649925395834e-01 2.108444409916164659e+04
7.400988563614629978e-01 2.107719450582831269e+04
7.425699710738551396e-01 2.106037012849498205e+04
7.450493365866225348e-01 2.105739276566165063e+04
7.475369804483474878e-01 2.104080026816164536e+04
7.500329302995940584e-01 2.103397494349498083e+04
