#Best-fit ATMO: \chi^2/N_obs=4.11
#[M/H]=+2.0, C/O=0.35, Tint=300, redis=0.25$
#$Wavelength[micron] Transit depth [ppm]
2.003600284348780736e-01 2.139879209736041958e+04
2.010290101658793183e-01 2.139676480319375332e+04
2.017002255587537207e-01 2.139469313136041819e+04
2.023736820714707729e-01 2.139295036369375157e+04
2.030493871869013534e-01 2.139089195394375201e+04
2.037273484129010215e-01 2.138884667136042117e+04
2.044075732823931735e-01 2.138707624702708563e+04
2.050900693534529196e-01 2.138503262019375325e+04
2.057748442093910168e-01 2.138298987069374925e+04
2.064619054588380520e-01 2.138120837036041848e+04
2.071512607358291236e-01 2.137917511544375520e+04
2.078429176998886629e-01 2.137709532336041593e+04
2.085368840361153109e-01 2.137532210802708505e+04
2.092331674552676546e-01 2.137324073594375295e+04
2.099317756938495205e-01 2.137117122236041905e+04
2.106327165141962665e-01 2.136939787536041695e+04
2.113359977045608518e-01 2.136726926044375432e+04
2.120416270792004898e-01 2.136530745802708770e+04
2.127496124784632459e-01 2.136344955769375520e+04
2.134599617688754947e-01 2.136139538419375094e+04
2.141726828432289897e-01 2.135934861369374994e+04
2.148877836206687930e-01 2.135756256902708265e+04
2.156052720467812045e-01 2.135549690644375369e+04
2.163251560936819418e-01 2.135337075902708602e+04
2.170474437601049300e-01 2.135158384769374970e+04
2.177721430714908979e-01 2.134950569469375114e+04
2.184992620800768615e-01 2.134745516736042191e+04
2.192288088649853028e-01 2.134561417069375238e+04
2.199607915323141538e-01 2.134354915544375035e+04
2.206952182152267239e-01 2.134144155336041877e+04
2.214320970740421557e-01 2.133965757636041963e+04
2.221714362963260747e-01 2.133750453119375015e+04
2.229132440969815998e-01 2.133540716936042008e+04
2.236575287183404925e-01 2.133357641602708463e+04
2.244042984302548338e-01 2.133152167269375423e+04
2.251535615301888671e-01 2.132945178036041762e+04
2.259053263433113412e-01 2.132759201769375068e+04
2.266596012225878531e-01 2.132548149819374885e+04
2.274163945488736349e-01 2.132335018236042015e+04
2.281757147310067291e-01 2.132153693202708382e+04
2.289375702059015805e-01 2.131939548819374977e+04
2.297019694386424893e-01 2.131726286769375292e+04
2.304689209225778412e-01 2.131544051136041526e+04
2.312384331794144765e-01 2.131333980419375075e+04
2.320105147593123363e-01 2.131117107936041793e+04
2.327851742409794977e-01 2.130938322436041926e+04
2.335624202317674314e-01 2.130721287144375310e+04
2.343422613677666466e-01 2.130513117769375094e+04
2.351247063139027815e-01 2.130328808436042164e+04
2.359097637640326650e-01 2.130114932994375340e+04
2.366974424410411282e-01 2.129900450669375277e+04
2.374877510969377326e-01 2.129713965069375263e+04
2.382806985129541921e-01 2.129497600594375035e+04
2.390762934996418509e-01 2.129282877569374978e+04
2.398745448969695215e-01 2.129101120869375154e+04
2.406754615744218784e-01 2.128884261669375337e+04
2.414790524310977404e-01 2.128663475669375475e+04
2.422853263958092418e-01 2.128484840102708768e+04
2.430942924271808914e-01 2.128541182444375227e+04
2.439059595137491043e-01 2.128843185736041778e+04
2.447203366740620945e-01 2.128641468202708711e+04
2.455374329567801550e-01 2.128154769944375221e+04
2.463572574407760785e-01 2.128015277769375462e+04
2.471798192352361034e-01 2.127319090936041903e+04
2.480051274797611116e-01 2.127510373269375123e+04
2.488331913444681853e-01 2.127411503236041972e+04
2.496640200300924151e-01 2.126703809102708692e+04
2.504976227680894008e-01 2.126427438269375125e+04
2.513340088207374201e-01 2.127022392369375302e+04
2.521731874812407348e-01 2.126012848536041929e+04
2.530151680738325082e-01 2.125778298994375291e+04
2.538599599538786666e-01 2.125620821969375174e+04
2.547075725079817610e-01 2.126351617736041590e+04
2.555580151540852163e-01 2.125156740744375202e+04
2.564112973415779706e-01 2.124933957102708155e+04
2.572674285513996129e-01 2.124735570102708516e+04
2.581264182961454656e-01 2.124524299019375030e+04
2.589882761201727224e-01 2.124573789569375367e+04
2.598530115997058632e-01 2.125300937402708223e+04
2.607206343429435691e-01 2.123897487169375381e+04
2.615911539901654148e-01 2.123651599402708234e+04
2.624645802138386719e-01 2.123462837969374959e+04
2.633409227187263335e-01 2.123229524294375369e+04
2.642201912419941401e-01 2.123014913802708543e+04
2.651023955533196585e-01 2.122815109469375602e+04
2.659875454550001961e-01 2.122612637569375147e+04
2.668756507820619905e-01 2.122444497302708623e+04
2.677667214023693454e-01 2.123070682002708782e+04
2.686607672167345418e-01 2.123214196344375159e+04
2.695577981590274730e-01 2.121785135536042071e+04
2.704578241962863339e-01 2.121553162469375457e+04
2.713608553288281988e-01 2.121315554119375156e+04
2.722669015903601553e-01 2.121075535369375575e+04
2.731759730480908810e-01 2.120882714069375288e+04
2.740880798028424437e-01 2.120672664744375288e+04
2.750032319891624333e-01 2.120425565302708856e+04
2.759214397754368164e-01 2.120225332902708760e+04
2.768427133640025128e-01 2.119999753369375321e+04
2.777670629912613043e-01 2.119773849102708482e+04
2.786944989277930773e-01 2.119579567902709096e+04
2.796250314784701763e-01 2.119352733494375207e+04
2.805586709825719227e-01 2.119132291802708278e+04
2.814954278138993571e-01 2.118950227336042008e+04
2.824353123808906463e-01 2.118760077044375430e+04
2.833783351267367134e-01 2.118625400202708624e+04
2.843245065294970342e-01 2.118768021036042046e+04
2.852738371022165431e-01 2.121751117394375251e+04
2.862263373930419852e-01 2.118620113469375428e+04
2.871820179853392663e-01 2.117939836169375485e+04
2.881408894978112478e-01 2.117750836419374900e+04
2.891029625846152640e-01 2.117419548802708596e+04
2.900682479354820820e-01 2.117123538036042009e+04
2.910367562758342519e-01 2.116865414694375431e+04
2.920084983669054557e-01 2.116703324602708381e+04
2.929834850058600781e-01 2.116545851069375203e+04
2.939617270259130555e-01 2.116260700394375090e+04
2.949432352964502790e-01 2.115796649502708169e+04
2.959280207231496096e-01 2.115594741269375299e+04
2.969160942481016696e-01 2.115626976644375100e+04
2.979074668499317458e-01 2.115123607036042085e+04
2.989021495439214693e-01 2.115073507036041701e+04
2.999001533821315513e-01 2.115121547344375358e+04
3.009014894535242957e-01 2.114440943702708682e+04
3.019061688840869451e-01 2.114240079802708351e+04
3.029142028369553596e-01 2.114027041594375260e+04
3.039256025125378624e-01 2.114355271469375293e+04
3.049403791486398063e-01 2.113556117369374988e+04
3.059585440205884743e-01 2.113320473219375344e+04
3.069801084413583681e-01 2.113084759936041883e+04
3.080050837616968296e-01 2.112883575936042325e+04
3.090334813702501071e-01 2.112654466919375409e+04
3.100653126936899762e-01 2.113798931436042039e+04
3.111005891968408599e-01 2.112264957336042062e+04
3.121393223828069496e-01 2.111977140619375496e+04
3.131815237931000473e-01 2.111737576202708442e+04
3.142272050077681844e-01 2.111536255602708479e+04
3.152763776455236866e-01 2.111420089944375286e+04
3.163290533638726809e-01 2.111158091302708635e+04
3.173852438592444924e-01 2.110886540469375541e+04
3.184449608671218179e-01 2.110672098169375022e+04
3.195082161621706218e-01 2.110472088536041701e+04
3.205750215583715312e-01 2.110333814302708925e+04
3.216453889091507312e-01 2.111874163794375272e+04
3.227193301075118592e-01 2.110347448936041837e+04
3.237968570861679551e-01 2.110059149302708829e+04
3.248779818176743550e-01 2.109866986669374819e+04
3.259627163145614182e-01 2.109973272369375263e+04
3.270510726294681425e-01 2.110290510536041984e+04
3.281430628552760576e-01 2.111237888069375185e+04
3.292386991252435613e-01 2.113702846002708611e+04
3.303379936131408678e-01 2.121093474669375428e+04
3.314409585333850661e-01 2.113681295319375567e+04
3.325476061411759554e-01 2.110578997569375133e+04
3.336579487326323257e-01 2.109325946269375709e+04
3.347719986449282370e-01 2.108727666944375596e+04
3.358897682564304654e-01 2.107768259336041956e+04
3.370112699868359485e-01 2.107342156036042070e+04
3.381365162973095639e-01 2.106914249744375047e+04
3.392655196906227411e-01 2.106548033436041806e+04
3.403982927112926271e-01 2.106313192769375382e+04
3.415348479457209763e-01 2.105963158069375277e+04
3.426751980223343708e-01 2.105723883602708520e+04
3.438193556117244976e-01 2.105849854236041938e+04
3.449673334267886471e-01 2.109411682894375190e+04
3.461191442228714887e-01 2.105090085402708792e+04
3.472748007979060691e-01 2.104654899936042057e+04
3.484343159925568090e-01 2.104377655594375392e+04
3.495977026903616669e-01 2.104036729702708544e+04
3.507649738178754140e-01 2.103799342036042071e+04
3.519361423448131854e-01 2.103531600044375591e+04
3.531112212841948650e-01 2.103258938936041886e+04
3.542902236924893034e-01 2.103034317769375411e+04
3.554731626697597568e-01 2.102775807244375392e+04
3.566600513598090494e-01 2.102503209069375225e+04
3.578509029503259553e-01 2.102287807069375413e+04
3.590457306730315268e-01 2.102841203019375462e+04
3.602445478038263094e-01 2.101756841269375218e+04
3.614473676629376131e-01 2.101644252236041939e+04
3.626542036150675608e-01 2.101267265994374975e+04
3.638650690695419132e-01 2.100992921202708749e+04
3.650799774804586173e-01 2.100761249169375151e+04
3.662989423468374084e-01 2.100498246669375294e+04
3.675219772127701345e-01 2.100224525102708867e+04
3.687490956675706921e-01 2.100000637236041803e+04
3.699803113459265158e-01 2.099737626169375289e+04
3.712156379280497909e-01 2.099469476969375319e+04
3.724550891398296093e-01 2.099249250369375659e+04
3.736986787529843479e-01 2.098996543319375269e+04
3.749464205852146570e-01 2.098722813869375386e+04
3.761983285003572264e-01 2.098507504536041961e+04
3.774544164085387177e-01 2.098235038069375150e+04
3.787146982663300854e-01 2.097971153636041709e+04
3.799791880769021191e-01 2.097740993736041855e+04
3.812478998901805971e-01 2.097400346469375290e+04
3.825208478030025505e-01 2.097122151169375502e+04
3.837980459592730265e-01 2.096888103736041739e+04
3.850795085501219628e-01 2.096621910519375160e+04
3.863652498140622837e-01 2.096353870669375101e+04
3.876552840371476627e-01 2.096309823636041983e+04
3.889496255531314506e-01 2.095926207044375406e+04
3.902482887436260484e-01 2.095624661902708613e+04
3.915512880382624461e-01 2.095401700469374919e+04
3.928586379148509833e-01 2.095155304344375327e+04
3.941703528995416650e-01 2.094911690902708506e+04
3.954864475669859214e-01 2.094712671136041899e+04
3.968069365404983673e-01 2.094530578344375317e+04
3.981318344922195607e-01 2.094354004569374956e+04
3.994611561432787061e-01 2.094275405869375027e+04
4.007949162639574681e-01 2.094406208019375481e+04
4.021331296738537842e-01 2.095129724769375025e+04
4.034758112420469556e-01 2.097980962936041760e+04
4.048229758872624595e-01 2.107824950944375450e+04
4.061746385780379831e-01 2.096234832302708674e+04
4.075308143328895127e-01 2.093886697436041868e+04
4.088915182204784782e-01 2.092811270869375221e+04
4.102567653597788966e-01 2.092187004869375232e+04
4.116265709202455714e-01 2.091807756436042109e+04
4.130009501219826240e-01 2.091444194169375260e+04
4.143799182359124700e-01 2.091108534702708857e+04
4.157634905839455719e-01 2.090867116969375274e+04
4.171516825391506922e-01 2.090617620144375542e+04
4.185445095259258119e-01 2.090336918702708499e+04
4.199419870201693272e-01 2.092958160102708644e+04
4.213441305494520228e-01 2.091509730319375012e+04
4.227509556931897672e-01 2.089481092069375154e+04
4.241624780828164853e-01 2.089175399702708819e+04
4.255787134019577422e-01 2.088891043119375172e+04
4.269996773866053807e-01 2.088578385036042164e+04
4.284253858252917713e-01 2.088300911436042225e+04
4.298558545592660596e-01 2.088001132744375354e+04
4.312910994826693045e-01 2.087706135802708377e+04
4.327311365427115586e-01 2.087459698336042129e+04
4.341759817398491705e-01 2.087173400644375215e+04
4.356256511279621435e-01 2.086897531002708638e+04
4.370801608145329364e-01 2.086674192569375373e+04
4.385395269608252100e-01 2.086422949869375225e+04
4.400037657820633497e-01 2.086167094536041986e+04
4.414728935476128213e-01 2.085969718002708396e+04
4.429469265811607492e-01 2.086401062894375355e+04
4.444258812608975484e-01 2.085609475202708563e+04
4.459097740196985571e-01 2.085386907169375263e+04
4.473986213453068350e-01 2.085046953844375457e+04
4.488924397805165167e-01 2.084686555636041885e+04
4.503912459233563315e-01 2.084402632102708594e+04
4.518950564272740111e-01 2.084107276419375194e+04
4.534038880013216422e-01 2.083804164536041935e+04
4.549177574103410726e-01 2.083554180102708779e+04
4.564366814751502077e-01 2.083789743444375199e+04
4.579606770727300269e-01 2.082880914336042042e+04
4.594897611364119339e-01 2.083000404636042003e+04
4.610239506560660505e-01 2.082312802794375239e+04
4.625632626782899548e-01 2.082032390936041702e+04
4.641077143065980848e-01 2.081880892236041836e+04
4.656573227016117533e-01 2.081642875094375268e+04
4.672121050812498844e-01 2.081550346569375324e+04
4.687720787209200823e-01 2.081510456169375539e+04
4.703372609537111448e-01 2.081633582994375320e+04
4.719076691705849647e-01 2.081287143869375723e+04
4.734833208205702082e-01 2.081350470236042020e+04
4.750642334109561049e-01 2.081951601169375135e+04
4.766504245074868473e-01 2.082491393069375044e+04
4.782419117345568793e-01 2.082970704669375482e+04
4.798387127754068504e-01 2.083677804644374919e+04
4.814408453723197368e-01 2.084664445102708487e+04
4.830483273268182942e-01 2.085604308536041935e+04
4.846611764998627336e-01 2.086830521169375425e+04
4.862794108120492287e-01 2.087776104802708505e+04
4.879030482438089789e-01 2.088836650502708653e+04
4.895321068356079941e-01 2.090017444069375415e+04
4.911666046881476566e-01 2.091164457102708548e+04
4.928065599625654492e-01 2.091953274569375208e+04
4.944519908806374042e-01 2.092858009044375285e+04
4.961029157249800536e-01 2.093874312569375252e+04
4.977593528392537658e-01 2.095034368869375248e+04
4.994213206283664719e-01 2.096414708619375233e+04
5.010888375586781684e-01 2.098062255169375203e+04
5.027619221582063647e-01 2.099730597569375095e+04
5.044405930168314178e-01 2.101294121194375111e+04
5.061248687865036455e-01 2.100994547369375505e+04
5.078147681814502157e-01 2.100965651136041561e+04
5.095103099783833134e-01 2.101430136494375256e+04
5.112115130167083077e-01 2.101457802169375282e+04
5.129183961987340279e-01 2.101497364902708432e+04
5.146309784898817075e-01 2.101575155794375314e+04
5.163492789188963705e-01 2.101848875302708620e+04
5.180733165780579963e-01 2.102198304536041906e+04
5.198031106233937937e-01 2.102479998194375003e+04
5.215386802748909201e-01 2.102674499702708636e+04
5.232800448167101992e-01 2.103011764769375441e+04
5.250272235974002832e-01 2.103367824844375355e+04
5.267802360301128139e-01 2.103658280669375017e+04
5.285391015928176950e-01 2.103932060436042229e+04
5.303038398285199184e-01 2.104269714844375267e+04
5.320744703454765023e-01 2.104580151602708429e+04
5.338510128174147606e-01 2.104835393269375345e+04
5.356334869837500179e-01 2.105141425844375408e+04
5.374219126498058774e-01 2.105467268002708443e+04
5.392163096870339345e-01 2.105746340936041815e+04
5.410166980332342668e-01 2.106261115894375325e+04
5.428230976927777007e-01 2.106428152702708030e+04
5.446355287368269682e-01 2.106689603869375060e+04
5.464540113035609714e-01 2.106994205544375291e+04
5.482785655983976048e-01 2.107227011136041983e+04
5.501092118942185749e-01 2.107506739936041777e+04
5.519459705315948872e-01 2.107772450794375254e+04
5.537888619190125539e-01 2.108096139769375077e+04
5.556379065330994127e-01 2.108318766302708536e+04
5.574931249188526117e-01 2.108655322619375147e+04
5.593545376898672039e-01 2.108947876436042134e+04
5.612221655285645205e-01 2.109285413302708548e+04
5.630960291864228751e-01 2.109609001044375327e+04
5.649761494842071574e-01 2.109984237802708958e+04
5.668625473122012037e-01 2.110316173436042300e+04
5.687552436304389447e-01 2.111357663844375202e+04
5.706542594689378856e-01 2.111373599702708816e+04
5.725596159279326969e-01 2.111896552436041748e+04
5.744713341781093607e-01 2.112387425244375117e+04
5.763894354608409820e-01 2.112745475569375049e+04
5.783139410884230447e-01 2.113330079402708725e+04
5.802448724443109995e-01 2.113965774619375225e+04
5.821822509833570747e-01 2.114689338136041988e+04
5.841260982320494177e-01 2.115621986169375305e+04
5.860764357887506826e-01 2.116948699819375179e+04
5.880332853239385038e-01 2.124300338736041886e+04
5.899966685804458599e-01 2.131893174602708677e+04
5.919666073737026579e-01 2.120205224069375254e+04
5.939431235919788721e-01 2.117440034436041606e+04
5.959262391966265726e-01 2.116509256269375328e+04
5.979159762223247299e-01 2.115966323194375218e+04
5.999123567773241295e-01 2.114633526936041744e+04
6.019154030436925096e-01 2.113487431102708797e+04
6.039251372775613635e-01 2.112344482144375434e+04
6.059415818093728534e-01 2.110980604869375384e+04
6.079647590441286109e-01 2.110109110069375311e+04
6.099946914616383165e-01 2.109417828419374928e+04
6.120314016167689442e-01 2.108828429202708867e+04
6.140749121396964494e-01 2.108284864569374986e+04
6.161252457361561241e-01 2.107792807269375407e+04
6.181824251876959497e-01 2.107221421869375263e+04
6.202464733519286177e-01 2.106798906569374958e+04
6.223174131627864369e-01 2.106305712844375375e+04
6.243952676307756855e-01 2.105916173436041936e+04
6.264800598432324064e-01 2.105967908136042024e+04
6.285718129645787577e-01 2.105562033119375337e+04
6.306705502365805849e-01 2.104563212402708814e+04
6.327762949786059909e-01 2.104579499736041907e+04
6.348890705878833529e-01 2.103773886444375603e+04
6.370089005397627790e-01 2.103529376202708954e+04
6.391358083879756791e-01 2.103086842769374925e+04
6.412698177648972209e-01 2.102683713894375251e+04
6.434109523818083431e-01 2.102861145936042158e+04
6.455592360291598775e-01 2.104590611736042047e+04
6.477146925768365593e-01 2.106477257319374985e+04
6.498773459744220382e-01 2.103229794602708716e+04
6.520472202514651094e-01 2.104767060502708773e+04
6.542243395177471665e-01 2.102554646519375092e+04
6.564087279635493211e-01 2.103514988136041939e+04
6.586004098599216317e-01 2.102458135569375008e+04
6.607994095589531103e-01 2.100802445819375134e+04
6.630057514940415064e-01 2.099552639636042295e+04
6.652194601801650897e-01 2.098707470469375403e+04
6.674405602141556537e-01 2.097305217994375198e+04
6.696690762749708536e-01 2.097091446969375465e+04
6.719050331239690976e-01 2.098315113236041725e+04
6.741484556051842159e-01 2.095989651394375323e+04
6.763993686456022392e-01 2.095431297836041995e+04
6.786577972554372895e-01 2.095183893469375471e+04
6.809237665284103569e-01 2.094953833444375414e+04
6.831973016420277434e-01 2.094540816436042223e+04
6.854784278578609502e-01 2.094263778569375427e+04
6.877671705218270093e-01 2.094226824669375128e+04
6.900635550644708127e-01 2.096118079669375584e+04
6.923676070012469985e-01 2.105476936669375209e+04
6.946793519328037236e-01 2.102542413619374929e+04
6.969988155452671030e-01 2.099298867102708755e+04
6.993260236105267591e-01 2.100679652202708530e+04
7.016610019865218151e-01 2.102187211944375304e+04
7.040037766175284428e-01 2.101976571102708476e+04
7.063543735344484098e-01 2.102130553536042135e+04
7.087128188550977370e-01 2.103027710044375272e+04
7.110791387844970224e-01 2.103388688536042173e+04
7.134533596151630963e-01 2.105984964402708283e+04
7.158355077274007883e-01 2.112928295269375303e+04
7.182256095895956927e-01 2.114579064469374862e+04
7.206236917585091550e-01 2.116143451636042300e+04
7.230297808795727033e-01 2.112715169419375161e+04
7.254439036871839219e-01 2.113433581869375121e+04
7.278660870050042142e-01 2.110455357202708547e+04
7.302963577462563416e-01 2.113342240944375226e+04
7.327347429140235180e-01 2.111706924602708750e+04
7.351812696015493920e-01 2.110235268636041656e+04
7.376359649925395834e-01 2.111242852194375519e+04
7.400988563614629978e-01 2.109910718336041828e+04
7.425699710738551396e-01 2.107197789602708508e+04
7.450493365866225348e-01 2.108089267994375405e+04
7.475369804483474878e-01 2.104357571602708776e+04
7.500329302995940584e-01 2.103622296502708559e+04
